Date,Open,High,Low,Close,Adj Close,Volume,ATR,ATR_2
2018-12-31,92.81999969482422,94.06999969482422,92.66000366210938,94.06999969482422,92.02664184570312,246900,0.0,0.0
2019-01-02,92.7300033569336,92.7300033569336,89.44999694824219,90.18000030517578,88.22114562988281,517500,0.0,0.0
2019-01-03,88.97000122070312,90.20999908447266,88.26000213623047,89.08999633789062,87.15482330322266,637200,0.0,0.0
2019-01-04,90.0999984741211,91.9000015258789,89.29000091552734,91.06999969482422,89.09181213378906,433600,0.0,0.0
2019-01-07,90.5999984741211,93.48999786376953,90.58000183105469,91.94999694824219,89.95269012451172,525400,0.0,0.0
2019-01-08,92.81999969482422,94.0999984741211,91.76000213623047,93.5199966430664,91.48857879638672,379600,0.0,0.0
2019-01-09,93.86000061035156,94.19999694824219,93.20999908447266,93.4800033569336,91.449462890625,195700,0.0,0.0
2019-01-10,93.13999938964844,94.81999969482422,93.12999725341797,94.58000183105469,92.52557373046875,205800,0.0,0.0
2019-01-11,94.66999816894531,94.75,93.43000030517578,94.7300033569336,92.67231750488281,248200,0.0,0.0
2019-01-14,94.27999877929688,94.8499984741211,93.73999786376953,93.95999908447266,91.91902923583984,210500,0.0,0.0
2019-01-15,93.97000122070312,95.4000015258789,93.9000015258789,94.80999755859375,92.75056457519531,213900,0.0,0.0
2019-01-16,94.81999969482422,95.3499984741211,94.38999938964844,94.70999908447266,92.65274047851562,187100,0.0,0.0
2019-01-17,94.38999938964844,96.16999816894531,94.37999725341797,95.93000030517578,93.84622955322266,265500,0.0,0.0
2019-01-18,96.0999984741211,97.97000122070312,95.87999725341797,97.69000244140625,95.56800842285156,237400,1.963571275983538,0.14025509114168128
2019-01-22,97.41999816894531,98.25,95.12000274658203,96.44000244140625,94.34516143798828,304000,2.0468874172288545,0.13618802329194094
2019-01-23,96.69999694824219,97.7699966430664,96.25,97.37999725341797,95.2647476196289,266300,2.009252361931537,0.12914852557803927
2019-01-24,97.25,98.05999755859375,96.70999908447266,97.12999725341797,95.02017211914062,135300,1.962162798516505,0.12328717113782443
2019-01-25,97.91000366210938,98.3499984741211,97.06999969482422,97.38999938964844,95.2745361328125,116300,1.9134367971436743,0.11796137329746774
2019-01-28,97.38999938964844,98.51000213623047,97.27999877929688,97.87999725341797,95.7538833618164,217900,1.8646201228429542,0.11302246622627148
2019-01-29,97.41999816894531,98.41999816894531,97.41999816894531,97.94000244140625,96.14656829833984,161600,1.8028615426398862,0.10936076008175695
2019-01-30,98.0999984741211,98.80000305175781,97.62000274658203,97.95999908447266,96.16618347167969,292500,1.758371454249593,0.10472714067522383
2019-01-31,98.0,99.27999877929688,97.23999786376953,99.12000274658203,97.3049545288086,346500,1.7784878443408607,0.09868351563351267
2019-02-01,99.33000183105469,99.9800033569336,99.05000305175781,99.55000305175781,97.7270736694336,269600,1.717881591543355,0.09596371114522646
2019-02-04,99.41999816894531,99.88999938964844,98.5199966430664,99.8499984741211,98.02159118652344,137200,1.693033102617546,0.09088405241526808
2019-02-05,99.94999694824219,101.12999725341797,99.41999816894531,101.06999969482422,99.21924591064453,288000,1.6942449584643398,0.0844788955175199
2019-02-06,100.62000274658203,102.0,100.58000183105469,101.58999633789062,99.72972869873047,206800,1.6746559020701235,0.0798439070087125
2019-02-07,101.12999725341797,102.04000091552734,100.83999633789062,101.94999694824219,100.0831298828125,202100,1.640752236039166,0.07656246122458714
2019-02-08,101.56999969482422,102.30999755859375,100.95999908447266,101.38999938964844,99.53338623046875,184300,1.6199841101878751,0.07257715155506597
2019-02-11,101.87999725341797,102.44999694824219,101.23999786376953,101.69999694824219,99.83769989013672,239100,1.5906994654939308,0.06948482963641442
2019-02-12,102.30000305175781,102.69000244140625,101.73999786376953,102.31999969482422,100.44635772705078,230000,1.5477927531846547,0.06758639268447597
2019-02-13,102.70999908447266,103.51000213623047,102.26000213623047,102.80000305175781,100.91757202148438,229700,1.5265218422428937,0.06427814398856777
2019-02-14,102.23999786376953,103.02999877929688,101.55999755859375,101.7699966430664,99.90641784667969,234000,1.522484654990053,0.0599752185074444
2019-02-15,102.31999969482422,102.45999908447266,101.3499984741211,101.94000244140625,100.07331848144531,235800,1.4930215089444465,0.05779578476017027
2019-02-19,101.83999633789062,102.02999877929688,101.26000213623047,101.55000305175781,99.69046783447266,378800,1.4413768756674437,0.05735641679708688
2019-02-20,101.47000122070312,102.66000366210938,101.30999755859375,102.26000213623047,100.387451171875,282100,1.434850391942314,0.05372570729194709
2019-02-21,102.30000305175781,104.0,100.63999938964844,103.12000274658203,101.23170471191406,508600,1.5723611218286888,0.05971035176297764
2019-02-22,102.4800033569336,103.55000305175781,101.23999786376953,102.05000305175781,100.1812973022461,303400,1.6250499836972312,0.05920881677051798
2019-02-25,102.2699966430664,102.5999984741211,101.11000061035156,101.55999755859375,99.70027160644531,336100,1.6154034037023954,0.0556686570008264
2019-02-26,101.20999908447266,101.66999816894531,100.93000030517578,101.30999755859375,99.45484924316406,302500,1.5528744365643337,0.05615867915348607
2019-02-27,102.0199966430664,102.30000305175781,100.79000091552734,101.41000366210938,99.55302429199219,375300,1.549812129397629,0.05236608115443025
2019-02-28,101.26000213623047,102.05000305175781,100.97000122070312,101.7300033569336,99.8671646118164,311500,1.5162542509445618,0.05102263810433289
2019-03-01,102.20999908447266,102.20999908447266,100.69000244140625,100.80999755859375,98.96400451660156,245900,1.5165215646675507,0.04739725779137975
2019-03-04,101.25,102.1500015258789,100.62999725341797,101.61000061035156,99.74935150146484,324000,1.5167703295099355,0.044029508295022966
2019-03-05,101.68000030517578,102.2699966430664,101.33000183105469,101.47000122070312,99.61192321777344,211000,1.475572078260063,0.04382727564894079
2019-03-06,101.52999877929688,102.0199966430664,100.43000030517578,100.48999786376953,98.64986419677734,127500,1.4837452396622461,0.04128055320274382
2019-03-07,100.19999694824219,100.62999725341797,99.36000061035156,99.87999725341797,98.05104064941406,151600,1.4684774827625433,0.039422496323955177
2019-03-08,99.20999908447266,100.62000274658203,99.20999908447266,100.47000122070312,98.6302261352539,146300,1.464300781287317,0.036904939549045966
2019-03-11,100.5999984741211,102.06999969482422,100.56999969482422,102.0199966430664,100.15184020996094,175300,1.4739934736325868,0.0349612076059191
2019-03-12,102.05999755859375,102.91000366210938,102.05000305175781,102.26000213623047,100.387451171875,176700,1.4322801554476141,0.035443501218708644
2019-03-13,102.5,103.33999633789062,102.08999633789062,102.27999877929688,100.40709686279297,287600,1.419260144344213,0.03384182335332953
2019-03-14,102.33999633789062,103.04000091552734,101.80999755859375,102.88999938964844,101.00591278076172,169400,1.4057418023863115,0.032390146110798955
2019-03-15,102.91999816894531,103.58000183105469,102.58000183105469,103.05000305175781,101.16299438476562,278600,1.3767602450730034,0.03214667548240675
2019-03-18,103.22000122070312,103.83999633789062,102.8499984741211,103.70999908447266,101.81090545654297,132800,1.349134360694184,0.03182376183215052
2019-03-19,104.22000122070312,104.58999633789062,103.23999786376953,103.5999984741211,101.70291900634766,188800,1.3491960830818202,0.02955504472897093
2019-03-20,103.41999816894531,104.83000183105469,102.86000061035156,103.94999694824219,102.04649353027344,181300,1.3935393071976276,0.030611343256602114
2019-03-21,103.56999969482422,105.68000030517578,103.56999969482422,105.54000091552734,103.60738372802734,194000,1.4447151145657657,0.032080233550283256
2019-03-22,105.26000213623047,105.26000213623047,103.5,103.83000183105469,101.92870330810547,213200,1.4872355289201642,0.0328259607505772
2019-03-25,103.55000305175781,104.97000122070312,103.0199966430664,104.51000213623047,102.59626007080078,163900,1.5202904609713468,0.03284231584347758
2019-03-26,105.0,106.37999725341797,104.69999694824219,105.44000244140625,103.50923156738281,262300,1.5452693649867864,0.0322806435700463
2019-03-27,105.5199966430664,106.48999786376953,105.12999725341797,105.5199966430664,103.5877456665039,179500,1.5320358825128417,0.030920132063181893
2019-03-28,105.76000213623047,106.38999938964844,105.41999816894531,106.19000244140625,104.24549102783203,129900,1.4918905495264334,0.031579074986269495
2019-03-29,106.0999984741211,106.68000030517578,105.47000122070312,106.38999938964844,104.44181823730469,337900,1.471755444879735,0.03076164853344299
2019-04-01,106.91000366210938,107.81999969482422,106.20999908447266,107.70999908447266,105.73765563964844,234000,1.481630099556294,0.02926972040080843
2019-04-02,107.80000305175781,107.80000305175781,106.66000366210938,107.22000122070312,105.25662994384766,194600,1.4572279059914472,0.02892203991252546
2019-04-03,107.61000061035156,108.08000183105469,107.16000366210938,107.47000122070312,105.50205993652344,201200,1.4188543533452946,0.029597147964927403
2019-04-04,107.68000030517578,108.16000366210938,107.29000091552734,108.0999984741211,106.12051391601562,164000,1.3796506671479187,0.03028332926724515
2019-04-05,107.56999969482422,108.95999908447266,107.56999969482422,108.73999786376953,106.74878692626953,161400,1.3803898616122416,0.028173033924179275
2019-04-08,108.6500015258789,109.2699966430664,107.98999786376953,108.98999786376953,106.99421691894531,149600,1.373219070018287,0.026672873757734663
2019-04-09,108.38999938964844,108.55999755859375,107.5199966430664,108.16000366210938,106.17941284179688,183400,1.3801320807814896,0.025261454972410953
2019-04-10,108.22000122070312,109.30000305175781,107.94999694824219,109.04000091552734,107.04329681396484,166200,1.3779802252624993,0.023610769297166625
2019-04-11,109.29000091552734,109.86000061035156,108.9800033569336,109.66000366210938,107.65194702148438,228900,1.3424100129878898,0.024465015224126835
2019-04-12,109.94999694824219,110.69999694824219,109.79000091552734,110.30999755859375,108.29004669189453,185900,1.320808818212527,0.024260456620643682
2019-04-15,110.33999633789062,110.5,109.48999786376953,109.88999938964844,107.87773132324219,190500,1.2986083409280944,0.02411331523948575
2019-04-16,109.80999755859375,109.97000122070312,108.76000213623047,109.62000274658203,107.61267852783203,197600,1.2922791083241345,0.022843023622662474
2019-04-17,109.68000030517578,109.75,107.58999633789062,107.69999694824219,105.72783660888672,150500,1.3542594335945088,0.025638545168927607
2019-04-18,107.93000030517578,108.37999725341797,107.30000305175781,108.20999908447266,106.22850036621094,214600,1.3346690598849122,0.025206532921832534
2019-04-22,108.25,109.37000274658203,108.25,108.93000030517578,106.9353256225586,165800,1.3221929600438025,0.024297216273209476
2019-04-23,109.02999877929688,110.52999877929688,109.02999877929688,110.05999755859375,108.04461669921875,220800,1.3420362110493234,0.023979075896946003
2019-04-24,109.97000122070312,110.86000061035156,109.94000244140625,109.94000244140625,107.92681884765625,152200,1.3118906366133225,0.024419540078307066
2019-04-25,109.20999908447266,109.97000122070312,108.83000183105469,109.44999694824219,107.44578552246094,132400,1.299612690401545,0.02355228337355495
2019-04-26,109.70999908447266,111.6500015258789,109.69999694824219,111.41999816894531,109.37972259521484,138900,1.3639263966326287,0.026463813577664145
2019-04-29,111.37999725341797,111.72000122070312,110.76000213623047,111.31999969482422,109.28154754638672,137600,1.3350744457640593,0.026634394812728807
2019-04-30,110.75,111.80999755859375,109.93000030517578,111.23999786376953,109.55731964111328,277600,1.3739975034536243,0.02751215644678853
2019-05-01,112.2699966430664,114.66000366210938,111.55000305175781,112.80999755859375,111.10356903076172,336100,1.5201409530883543,0.03598582024592721
2019-05-02,112.80999755859375,113.12000274658203,111.62000274658203,113.0,111.29069519042969,345200,1.5187023135820432,0.03351816447881177
2019-05-03,113.30000305175781,114.13999938964844,112.7300033569336,113.8499984741211,112.12783813476562,310200,1.5109375792343862,0.03167863375515786
2019-05-06,112.54000091552734,115.5199966430664,112.54000091552734,115.0199966430664,113.2801284790039,263000,1.6158703041132918,0.03691106883542555
2019-05-07,113.9800033569336,114.68000030517578,113.13999938964844,113.97000122070312,112.24601745605469,159500,1.6347365147779116,0.03562215039465371
2019-05-08,113.77999877929688,114.4800033569336,113.30999755859375,113.98999786376953,112.26571655273438,169400,1.601541463603764,0.035448786164617566
2019-05-09,113.37999725341797,113.79000091552734,112.76000213623047,113.0,111.29069519042969,259300,1.5750024824562854,0.034812371520536206
2019-05-10,112.72000122070312,113.70999908447266,112.18000030517578,113.5999984741211,111.8816146850586,225100,1.5717879322306132,0.032555384285188775
2019-05-13,111.91000366210938,113.16999816894531,111.29000091552734,112.80000305175781,111.09371185302734,160100,1.6245171912565515,0.033996375338099454
2019-05-14,113.38999938964844,114.36000061035156,112.88999938964844,112.9800033569336,111.27099609375,132600,1.6199086460663514,0.03189724461324949
2019-05-15,112.76000213623047,113.7699966430664,112.36000061035156,113.23999786376953,111.52705383300781,116500,1.6049148879698152,0.030689852719198545
2019-05-16,113.37999725341797,114.5,113.26000213623047,114.11000061035156,112.38390350341797,218800,1.5802782628455763,0.03025747931955857
2019-05-17,113.48999786376953,114.45999908447266,113.48999786376953,113.77999877929688,112.05889129638672,151800,1.5366870455496868,0.031209889175010774
2019-05-20,113.19000244140625,113.80999755859375,112.83000183105469,113.04000091552734,111.33008575439453,175600,1.4969233799774992,0.03182087320338055
2019-05-21,113.51000213623047,113.88999938964844,113.08999633789062,113.4800033569336,111.763427734375,156300,1.4507144581306133,0.032848590963630936
2019-05-22,113.7699966430664,113.9800033569336,113.0,113.1500015258789,111.43841552734375,146800,1.4170922366165404,0.0329038502886625
2019-05-23,112.54000091552734,113.69000244140625,112.04000091552734,112.95999908447266,111.25128936767578,119600,1.433728614420995,0.03174188796836195
2019-05-24,113.29000091552734,113.87000274658203,112.75,112.93000030517578,111.22174835205078,117700,1.411319623861069,0.031075252439187958
2019-05-28,113.04000091552734,113.62000274658203,112.69000244140625,112.9000015258789,111.19220733642578,259200,1.3769396725264056,0.03131130236029335
2019-05-29,112.54000091552734,113.44000244140625,112.27999877929688,112.69999694824219,110.99522399902344,188200,1.3614442432109033,0.030181597142808273
2019-05-30,112.7300033569336,113.62999725341797,112.54000091552734,113.51000213623047,111.79296875,128700,1.3420551071165978,0.029410707067915216
2019-05-31,112.52999877929688,113.7300033569336,111.5,113.2699966430664,111.55660247802734,247400,1.405479982103526,0.031840290490701854
2019-06-03,113.41000366210938,115.0,113.41000366210938,114.02999877929688,112.30510711669922,297400,1.4286602231628165,0.03122171553131533
2019-06-04,114.69999694824219,115.9800033569336,113.68000030517578,115.72000122070312,113.96955108642578,483400,1.4908989966338877,0.033437219669869324
2019-06-05,115.9000015258789,117.18000030517578,115.41000366210938,117.12999725341797,115.35820770263672,392000,1.510834542807639,0.032472814420146615
2019-06-06,117.20999908447266,120.38999938964844,117.20999908447266,120.2300033569336,118.41133880615234,319800,1.6357750851949842,0.03907765213208936
2019-06-07,120.0,122.5999984741211,119.91999816894531,121.91999816894531,120.07575225830078,427800,1.7103626009078983,0.04161407095929113
2019-06-10,122.19000244140625,123.27999877929688,121.62999725341797,123.22000122070312,121.3561019897461,253200,1.7060510955486845,0.03894960198785703
2019-06-11,124.0,124.44999694824219,121.20999908447266,122.58000183105469,120.72578430175781,365600,1.8156187218501736,0.0439937465816879
2019-06-12,122.98999786376953,122.98999786376953,121.19000244140625,121.62000274658203,119.7802963256836,273400,1.814502771886824,0.04093104682323516
2019-06-13,121.5,122.0999984741211,120.30999755859375,120.72000122070312,118.89390563964844,166500,1.8127526392897182,0.03813241009279735
2019-06-14,120.45999908447266,120.51000213623047,119.56999969482422,120.08999633789062,118.27344512939453,187300,1.7654132740460888,0.038790049746428204
2019-06-17,120.04000091552734,120.83999633789062,119.79000091552734,120.16999816894531,118.35223388671875,136300,1.7143119989258884,0.03966942298741194
2019-06-18,120.58999633789062,120.69999694824219,119.37999725341797,119.48999786376953,117.6825180053711,208300,1.6861468343471977,0.03884769024393185
2019-06-19,119.62999725341797,120.0,118.81999969482422,119.41000366210938,117.6037368774414,340200,1.6499935108349537,0.03865523547738271
2019-06-20,120.88999938964844,121.0,118.27999877929688,119.80999755859375,117.99767303466797,335100,1.7264226329683947,0.04135337023852974
2019-06-21,119.31999969482422,119.8499984741211,117.43000030517578,119.37999725341797,117.57418060302734,603600,1.7759637426810317,0.04193820877239455
2019-06-24,119.5,119.5,118.4800033569336,118.77999877929688,116.98326110839844,187700,1.7219660927085585,0.04279959742954303
2019-06-25,119.0,121.79000091552734,118.87999725341797,121.05999755859375,119.228759765625,300700,1.813968667245838,0.046314095794381345
2019-06-26,121.23999786376953,121.25,119.0999984741211,119.23999786376953,117.4363021850586,236700,1.837971014291057,0.04472039945515547
2019-06-27,119.38999938964844,121.80999755859375,119.38999938964844,121.55000305175781,119.71135711669922,247700,1.8902587771862829,0.045260925415160504
2019-06-28,121.62000274658203,124.75,121.62000274658203,124.33999633789062,122.45915222167969,831100,1.9838115036902761,0.04871033977864856
2019-07-01,125.0,126.19999694824219,123.12000274658203,124.2699966430664,122.39021301269531,322000,2.062110267830982,0.05082379866165265
2019-07-02,124.37000274658203,124.70999908447266,123.22000122070312,123.54000091552734,121.67125701904297,402400,2.021245096112307,0.050112468165725677
2019-07-03,124.0,125.91999816894531,124.0,125.91999816894531,124.01524353027344,188600,2.0468702502055685,0.04836337430340681
2019-07-05,125.20999908447266,125.26000213623047,123.01000213623047,124.61000061035156,122.72506713867188,255300,2.108522091813374,0.04931255053943529
2019-07-08,125.5,125.5,123.63999938964844,123.98999786376953,122.11444854736328,199600,2.090770557423245,0.04705819224305628
2019-07-09,123.79000091552734,124.52999877929688,123.79000091552734,124.06999969482422,122.1932373046875,235000,1.9942867935908368,0.05058859021372426
2019-07-10,124.62999725341797,125.79000091552734,123.3499984741211,123.58000183105469,121.71064758300781,169900,2.026123625577652,0.04924917891180219
2019-07-11,123.2699966430664,124.12000274658203,123.01000213623047,124.0199966430664,122.14398956298828,226400,1.9606862673472172,0.05040547743456166
2019-07-12,124.19000244140625,124.19000244140625,123.20999908447266,123.41000366210938,121.54322052001953,241000,1.8906374880319583,0.051808570426040035
2019-07-15,123.1500015258789,123.95999908447266,122.69000244140625,122.91999816894531,121.06063079833984,189600,1.8463059991058475,0.05127449317604509
2019-07-16,123.12000274658203,123.36000061035156,122.30000305175781,123.16000366210938,121.29701232910156,230800,1.7901411104978404,0.05162380713547095
2019-07-17,123.12000274658203,124.43000030517578,123.12000274658203,123.52999877929688,121.6613998413086,267300,1.7558451425046913,0.05038610433959082
2019-07-18,123.1500015258789,124.44999694824219,123.02999877929688,124.36000061035156,122.47885131835938,185300,1.7318560729647356,0.04850060185390259
2019-07-19,124.70999908447266,124.94999694824219,123.36000061035156,123.4000015258789,121.53337097167969,226000,1.7217232347451563,0.04576004730859379
2019-07-22,123.51000213623047,123.88999938964844,122.81999969482422,123.16000366210938,121.29701232910156,153800,1.675171553322232,0.04581659260247454
2019-07-23,123.88999938964844,124.70999908447266,123.37999725341797,124.51000213623047,122.62657928466797,183600,1.6662304011108784,0.043182632574537326
2019-07-24,124.01000213623047,124.55000305175781,122.83999633789062,123.29000091552734,121.42504119873047,215300,1.669357280593472,0.040321507353684206
2019-07-25,123.0,124.27999877929688,122.68000030517578,122.91999816894531,121.06063079833984,273700,1.6644030801311591,0.03779527114715769
2019-07-26,123.12999725341797,124.7699966430664,122.93000030517578,124.48999786376953,122.60688018798828,198000,1.677659893987583,0.036042524197819566
2019-07-29,124.44999694824219,125.66000366210938,123.54000091552734,124.94000244140625,123.05007934570312,277400,1.7092558120300436,0.03572490947243678
2019-07-30,123.80000305175781,124.56999969482422,122.95999908447266,123.80999755859375,122.28953552246094,221700,1.7285949223802972,0.0345544952494237
2019-07-31,123.48999786376953,123.86000061035156,119.94000244140625,121.0199966430664,119.5337905883789,621400,1.8851237257063698,0.04326694582632719
2019-08-01,120.19000244140625,120.19000244140625,114.83999633789062,117.55999755859375,116.11629486083984,533000,2.1919006242398993,0.06208908530541307
2019-08-02,116.61000061035156,118.33999633789062,115.6500015258789,118.0199966430664,116.57064056396484,316600,2.227478780509315,0.06019544751712754
2019-08-05,116.44000244140625,119.02999877929688,116.25,117.08000183105469,115.6421890258789,462500,2.2669444947084263,0.05871475228012638
2019-08-06,117.55000305175781,120.80999755859375,117.37999725341797,119.72000122070312,118.24977111816406,356400,2.371448154196329,0.06198538850925327
2019-08-07,119.0999984741211,122.26000213623047,118.69999694824219,121.66000366210938,120.16594696044922,268700,2.4563450851814683,0.06362192725753084
2019-08-08,122.4800033569336,124.0,121.58999633789062,122.87000274658203,121.36109161376953,374300,2.453034983533462,0.05931393971399338
2019-08-09,122.73999786376953,123.2300033569336,121.05000305175781,121.08000183105469,119.59305572509766,186400,2.433532506507913,0.056470263807675926
2019-08-12,121.0199966430664,121.68000030517578,119.91999816894531,120.04000091552734,118.56584167480469,132900,2.3854231943452384,0.05587305297589012
2019-08-13,119.77999877929688,121.80999755859375,119.05000305175781,121.22000122070312,119.7313461303711,216300,2.412178288094574,0.05379319874542193
2019-08-14,120.01000213623047,120.7300033569336,118.98999786376953,119.08999633789062,117.62749481201172,375800,2.3991657930116466,0.05088029134095803
2019-08-15,119.25,120.25,117.94999694824219,118.33000183105469,116.87683868408203,238400,2.392082740064944,0.047751917169939796
2019-08-16,118.91000366210938,120.73999786376953,117.94999694824219,120.25,118.77326202392578,197800,2.4205054668836863,0.04637126071628284
2019-08-19,121.19999694824219,121.4800033569336,120.0,120.22000122070312,118.7436294555664,206400,2.353326744744394,0.04785750796078351
2019-08-20,120.0999984741211,120.0999984741211,118.45999908447266,118.87999725341797,117.42008209228516,141800,2.3109464155648283,0.04746628090498225
2019-08-21,119.66000366210938,119.83000183105469,118.88999938964844,119.33000183105469,117.86455535888672,298500,2.213736284284249,0.05101941307466775
2019-08-22,119.83000183105469,120.72000122070312,119.04000091552734,120.54000091552734,119.0596923828125,227100,2.1756122857765012,0.05009831203417346
2019-08-23,120.55000305175781,121.33000183105469,119.88999938964844,120.26000213623047,118.78314208984375,296100,2.1230687254643406,0.05027297262545826
2019-08-26,120.72000122070312,121.2300033569336,119.91000366210938,120.98999786376953,119.50416564941406,237100,2.065706651847189,0.05077933698200777
2019-08-27,121.4800033569336,121.83000183105469,120.80999755859375,121.5,120.00790405273438,183000,1.9910136247481713,0.052487457704651345
2019-08-28,121.48999786376953,122.13999938964844,120.62999725341797,121.86000061035156,120.36347961425781,221100,1.9566556612826211,0.051192493830429835
2019-08-29,122.87999725341797,123.44000244140625,121.1500015258789,121.69000244140625,120.19557189941406,184600,1.9804660365858155,0.049236628221341595
2019-08-30,122.37999725341797,123.31999969482422,121.2300033569336,122.22000122070312,120.71905517578125,183700,1.988289629536159,0.04627855427341315
2019-09-03,120.80999755859375,121.08000183105469,118.56999969482422,119.6500015258789,118.18062591552734,262000,2.1069833364177835,0.05145106517399968
2019-09-04,120.7300033569336,122.05000305175781,120.19000244140625,121.94000244140625,120.4425048828125,160800,2.127913207093578,0.0492709798526993
2019-09-05,122.98999786376953,123.20999908447266,120.9800033569336,121.19999694824219,119.71158599853516,230100,2.135204815696827,0.046272453334881426
2019-09-06,120.95999908447266,121.83999633789062,120.31999969482422,120.87999725341797,119.39551544189453,239300,2.091261374794654,0.046106095303973686
2019-09-09,121.56999969482422,121.56999969482422,118.7699966430664,119.0999984741211,117.63737487792969,232900,2.1418857802920224,0.046428831746359034
2019-09-10,118.9800033569336,119.31999969482422,116.12000274658203,119.11000061035156,117.64725494384766,258200,2.21746514943132,0.04851101298871179
2019-09-11,118.9000015258789,119.52999877929688,116.72000122070312,118.62999725341797,117.17315673828125,231700,2.259788892942922,0.04806906516891825
2019-09-12,119.08000183105469,119.69999694824219,117.9800033569336,118.05000305175781,116.60028076171875,163300,2.221232085683327,0.04738961817539516
2019-09-13,118.55000305175781,118.97000122070312,117.66000366210938,118.4000015258789,116.94597625732422,269900,2.1561439051769287,0.04865380119903826
2019-09-16,117.72000122070312,117.72000122070312,115.87000274658203,116.4800033569336,115.049560546875,192100,2.1828478247569247,0.047085952511963826
2019-09-17,116.19999694824219,117.86000061035156,116.06999969482422,117.01000213623047,115.57305145263672,216700,2.1547873312405263,0.045726991155137724
2019-09-18,116.88999938964844,118.94999694824219,116.55999755859375,118.30000305175781,116.84719848632812,253400,2.1715881925553773,0.04366083902368867
2019-09-19,118.33000183105469,118.94999694824219,117.63999938964844,117.8499984741211,116.4027328491211,304200,2.110046004415261,0.04493807824629063
2019-09-20,118.13999938964844,119.0199966430664,117.55999755859375,118.05000305175781,116.60028076171875,527900,2.063614081562218,0.04504478143248723
2019-09-23,117.61000061035156,118.97000122070312,117.61000061035156,118.0999984741211,116.649658203125,164300,2.0133559764757427,0.045417161693486384
2019-09-24,118.5999984741211,119.48999786376953,118.25,118.51000213623047,117.05461883544922,187100,1.9688305059880782,0.045353469464499106
2019-09-25,118.70999908447266,119.44000244140625,118.66999816894531,119.12000274658203,117.65714263916016,202100,1.8946283487871998,0.04741409001709763
2019-09-26,119.56999969482422,119.68000030517578,118.5199966430664,118.91999816894531,117.4595947265625,117900,1.8421551568816408,0.047775454437702015
2019-09-27,119.20999908447266,119.30999755859375,118.05999755859375,118.66999816894531,117.21266174316406,149100,1.7998583599615237,0.04738412175787453
2019-09-30,118.94999694824219,119.41000366210938,117.83999633789062,118.44999694824219,116.99535369873047,219700,1.7834404288370398,0.04517225099834662
2019-10-01,119.29000091552734,119.7300033569336,117.5,117.66999816894531,116.22493743896484,143300,1.8153377808439366,0.044224043927528774
2019-10-02,117.0,117.0199966430664,115.05999755859375,115.3499984741211,113.93342590332031,225600,1.8720994115230527,0.045119585838356444
2019-10-03,115.0,115.2300033569336,113.77999877929688,114.98999786376953,113.57785034179688,241100,1.850520860330279,0.04343808336367196
2019-10-04,115.30999755859375,117.62000274658203,115.08999633789062,117.33000183105469,115.88911437988281,162400,1.9061982905075805,0.044312322421788355
2019-10-07,116.69000244140625,117.44999694824219,116.23999786376953,116.55999755859375,115.12857055664062,216100,1.8564697757908004,0.04469919330000205
2019-10-08,116.01000213623047,117.76000213623047,114.51000213623047,114.77999877929688,113.37042999267578,221900,1.9560076489486005,0.048616241861273335
2019-10-09,115.81999969482422,116.88999938964844,115.37999725341797,116.4800033569336,115.049560546875,134700,1.9670071461916692,0.04592933153140157
2019-10-10,116.4800033569336,117.23999786376953,115.7300033569336,116.30999755859375,114.88164520263672,102400,1.9343633862376883,0.04498036213301437
2019-10-11,116.91999816894531,118.0,116.23999786376953,116.33000183105469,114.90140533447266,213700,1.9219090112371726,0.0426570773378359
2019-10-14,116.31999969482422,116.87999725341797,115.73999786376953,115.8499984741211,114.42728424072266,131900,1.8660583239808344,0.043599478046300356
2019-10-15,116.33999633789062,116.63999938964844,115.05000305175781,115.18000030517578,113.76551818847656,182500,1.8463396106886767,0.04189370913529017
2019-10-16,115.13999938964844,115.5999984741211,114.4000015258789,115.47000122070312,114.05195617675781,213700,1.8001722776567846,0.04219896798504746
2019-10-17,115.56999969482422,117.08000183105469,115.5,116.55000305175781,115.11869812011719,153800,1.786588587134983,0.040155019594815614
2019-10-18,116.41999816894531,118.0,116.41999816894531,117.77999877929688,116.33358764648438,219100,1.7718323902721047,0.0383408179711058
2019-10-21,118.37000274658203,119.11000061035156,117.80000305175781,117.9000015258789,116.45211791992188,142900,1.7402730646137177,0.03785642566305446
2019-10-22,118.02999877929688,118.05000305175781,116.62000274658203,116.66000366210938,115.22734832763672,85400,1.7181107246538652,0.036735419541397175
2019-10-23,116.52999877929688,117.93000030517578,116.5,117.37000274658203,115.92863464355469,104800,1.6975314089768592,0.03558141212251209
2019-10-24,117.44999694824219,118.12999725341797,116.73999786376953,117.33999633789062,115.89899444580078,122500,1.675564836167686,0.03460892360013074
2019-10-25,117.20999908447266,118.62000274658203,117.20999908447266,117.87999725341797,116.43235778808594,120300,1.6565961808778067,0.033491761577969924
2019-10-28,117.95999908447266,118.80000305175781,117.83999633789062,118.19999694824219,116.74842071533203,134100,1.6068397903770482,0.03465352078674054
2019-10-29,117.44999694824219,119.12999725341797,117.44999694824219,118.51000213623047,117.41222381591797,136600,1.6120655414341005,0.03255153723461996
2019-10-30,118.58000183105469,119.62999725341797,117.7699966430664,119.25,118.14537048339844,148200,1.6297751892139192,0.03149140227356272
2019-10-31,119.04000091552734,119.62999725341797,117.62000274658203,118.1500015258789,117.05555725097656,316000,1.6569337119012062,0.03118191087454303
2019-11-01,113.66999816894531,115.55999755859375,109.54000091552734,110.79000091552734,109.76374053955078,583300,2.153581347504803,0.06442946264090402
2019-11-04,111.01000213623047,111.76000213623047,108.41000366210938,108.66999816894531,107.66337585449219,553700,2.239039713691681,0.06593152717990214
2019-11-05,109.20999908447266,110.25,108.43000030517578,108.66000366210938,107.65347290039062,385300,2.2091082837725766,0.06336009166127372
2019-11-06,108.66999816894531,109.80999755859375,108.41999816894531,109.48999786376953,108.47577667236328,369800,2.150600505620852,0.06301349783916306
2019-11-07,109.52999877929688,110.52999877929688,108.91000366210938,109.4000015258789,108.38661193847656,189400,2.1127001207327556,0.061219704056944026
2019-11-08,109.30999755859375,110.93000030517578,108.87000274658203,109.0,107.99031829833984,303500,2.1089356520085407,0.0571157586760348
2019-11-11,108.4800033569336,109.76000213623047,108.4800033569336,108.58000183105469,107.57420349121094,181500,2.049725875386279,0.05726533138647958
2019-11-12,108.63999938964844,109.30000305175781,108.16000366210938,108.22000122070312,107.21754455566406,185400,1.9847454121192902,0.057816412235087385
2019-11-13,108.31999969482422,110.06999969482422,108.0199966430664,109.62000274658203,108.60457611083984,385400,1.9894066720934702,0.05401961564502257
2019-11-14,109.4800033569336,110.58000183105469,109.4800033569336,110.47000122070312,109.44670104980469,224000,1.9258775150954432,0.054698868598808605
2019-11-15,110.7300033569336,110.7300033569336,109.69999694824219,109.95999908447266,108.94142150878906,307300,1.8618867217808692,0.055362577507077564
2019-11-18,109.91999816894531,110.94999694824219,109.87999725341797,110.33999633789062,109.31790161132812,352100,1.8053233627125371,0.055448347618595746
2019-11-19,110.7300033569336,111.4000015258789,110.44999694824219,110.5,109.47642517089844,258700,1.752086350232233,0.05529039510871777
2019-11-20,110.12000274658203,111.8499984741211,110.12000274658203,110.69999694824219,109.67456817626953,961400,1.7505084486112923,0.05145378843101941
2019-11-21,111.2300033569336,112.05000305175781,110.18000030517578,111.30000305175781,110.2690200805664,244200,1.7590437556092022,0.04838818261436873
2019-11-22,111.6500015258789,111.66999816894531,110.0,110.12000274658203,109.0999526977539,151700,1.7526833565617816,0.04538619807387244
2019-11-25,110.26000213623047,111.05999755859375,110.16999816894531,110.94999694824219,109.92224884033203,264400,1.6946341748082057,0.046290696908136975
2019-11-26,111.5199966430664,112.6500015258789,110.97000122070312,112.55999755859375,111.517333984375,221900,1.6950177750102424,0.04301161857198695
2019-11-27,112.98999786376953,113.58000183105469,112.62999725341797,112.83000183105469,111.78483581542969,145500,1.6468025248281493,0.0433833065441374
2019-11-29,112.63999938964844,113.20999908447266,111.94000244140625,112.12000274658203,111.08141326904297,89300,1.6198878189880248,0.04220697792242219
2019-12-02,112.5199966430664,112.72000122070312,111.62000274658203,112.01000213623047,110.9724349975586,273300,1.582752865783244,0.04184469044259066
2019-12-03,111.51000213623047,113.30999755859375,111.13999938964844,112.70999908447266,111.66594696044922,246400,1.6246989588662488,0.04185193348833454
2019-12-04,112.73999786376953,113.4800033569336,111.73999786376953,111.77999877929688,110.74456024169922,284600,1.6329351398875214,0.03945080831211583
2019-12-05,111.88999938964844,112.66000366210938,111.6500015258789,111.94999694824219,110.9129867553711,243700,1.588439925340589,0.039811123043174156
2019-12-06,112.79000091552734,113.0,111.80000305175781,112.08000183105469,111.04179382324219,322100,1.560693998404989,0.038949323321204564
2019-12-09,112.30999755859375,112.83999633789062,111.69000244140625,112.62999725341797,111.5866928100586,255000,1.5313582768392309,0.03826263748152982
2019-12-10,112.47000122070312,112.83000183105469,111.33999633789062,111.94000244140625,110.90308380126953,219500,1.528404506576719,0.03574057553731426
2019-12-11,111.97000122070312,112.7699966430664,111.9000015258789,112.56999969482422,111.5272445678711,141100,1.481375264477489,0.036546908863165375
2019-12-12,112.51000213623047,114.44000244140625,112.51000213623047,114.18000030517578,113.12232971191406,407000,1.5134199102416528,0.03622531864180813
2019-12-13,113.9800033569336,115.38999938964844,113.33000183105469,113.97000122070312,112.91427612304688,380400,1.5524611708382312,0.036426457352863144
2019-12-16,114.45999908447266,114.70999908447266,113.30000305175781,114.31999969482422,113.26103973388672,194200,1.5422850895437035,0.03455143049155347
2019-12-17,114.12999725341797,114.75,113.05999755859375,113.3499984741211,112.30001831054688,248900,1.5528363289624567,0.0328371311292106
2019-12-18,113.3499984741211,113.37000274658203,112.36000061035156,113.08000183105469,112.03253173828125,204000,1.514062458053029,0.033261183970654674
2019-12-19,113.16000366210938,113.4800033569336,112.80000305175781,113.26000213623047,112.21086120605469,172100,1.4544865899903685,0.03514080426294081
2019-12-20,113.72000122070312,115.13999938964844,113.72000122070312,114.95999908447266,113.89510345458984,473500,1.4848802088066257,0.0348017195881777
2019-12-23,114.93000030517578,115.37000274658203,114.2300033569336,115.37000274658203,114.30131530761719,144300,1.4602458645810408,0.03407547849084965
2019-12-24,115.30999755859375,115.63999938964844,114.68000030517578,114.7300033569336,113.667236328125,63800,1.424513951716156,0.03419379523185216
2019-12-26,114.73999786376953,114.86000061035156,113.80000305175781,114.81999969482422,113.75640869140625,110900,1.398477066493127,0.03361115880265051
2019-12-27,115.22000122070312,115.3499984741211,114.1500015258789,115.0199966430664,113.95455169677734,87800,1.3842999151894886,0.03222301540986393
2019-12-30,114.94000244140625,115.80000305175781,114.66999816894531,115.76000213623047,114.68769836425781,193000,1.366135984305418,0.03121879508659298
2019-12-31,115.72000122070312,116.19999694824219,115.0199966430664,115.62000274658203,114.54900360107422,310700,1.352840578653301,0.0299385529841304
2020-01-02,115.5,116.4800033569336,112.93000030517578,113.68000030517578,112.62696075439453,362700,1.5097807553036233,0.03901009753171553
2020-01-03,112.80999755859375,114.83999633789062,112.80999755859375,114.04000091552734,112.98363494873047,221500,1.5469391855888557,0.03887783558553816
2020-01-06,113.66000366210938,114.48999786376953,113.55999755859375,114.05000305175781,112.99354553222656,282400,1.5028721227022075,0.03924849467847459
2020-01-07,113.55999755859375,114.01000213623047,112.73999786376953,112.91000366210938,111.86409759521484,234700,1.4890959130797843,0.037429045745899496
2020-01-08,113.08000183105469,114.18000030517578,113.08000183105469,113.22000122070312,112.17122650146484,331000,1.4734459652216858,0.035873395896770854
2020-01-09,113.7699966430664,115.05999755859375,113.31999969482422,114.66000366210938,113.597900390625,329100,1.4996281346980387,0.03518116543816957
2020-01-10,114.66000366210938,116.16999816894531,114.56999969482422,115.79000091552734,114.71742248535156,196800,1.5067974446568282,0.03318031861821385
2020-01-13,115.48999786376953,116.55999755859375,115.37000274658203,116.19999694824219,115.12361907958984,248500,1.4841686851821776,0.032426635822245045
2020-01-14,116.25,116.31999969482422,115.13999938964844,116.12999725341797,115.05426788330078,160800,1.4624423723245779,0.031662327039056096
2020-01-15,116.31999969482422,117.2300033569336,115.9000015258789,116.70999908447266,115.62889099121094,241500,1.4529823336624428,0.03007644929784745
2020-01-16,117.20999908447266,118.2699966430664,117.18000030517578,118.22000122070312,117.12491607666016,187300,1.4606262783003934,0.028474127536426246
2020-01-17,118.30999755859375,118.61000061035156,117.05999755859375,117.31999969482422,116.23324584960938,190600,1.4670103335473519,0.02689626523003569
2020-01-21,116.66000366210938,116.7699966430664,115.3499984741211,115.62999725341797,114.55889892578125,189300,1.5029382540584784,0.02754138346439932
2020-01-22,115.69000244140625,116.43000030517578,115.4800033569336,115.66999816894531,114.59852600097656,141800,1.4634424465001719,0.028395270899678405
2020-01-23,115.33000183105469,119.0199966430664,114.7699966430664,117.37000274658203,116.28278350830078,301000,1.6624822717501595,0.04058416763898621
2020-01-24,117.4000015258789,118.16000366210938,116.62000274658203,117.12000274658203,116.03510284423828,213000,1.6537336034485297,0.03831020340060361
2020-01-27,115.54000091552734,117.26000213623047,115.22000122070312,116.48999786376953,115.41093444824219,239100,1.6813241257398737,0.037544511892799344
2020-01-28,116.41000366210938,116.58000183105469,115.56999969482422,115.97000122070312,115.25192260742188,178600,1.6333725550606304,0.0382878732346882
2020-01-29,115.91000366210938,117.08000183105469,115.52999877929688,115.94000244140625,115.22211456298828,211200,1.6274175905390005,0.03597837975518403
2020-01-30,115.0199966430664,117.01000213623047,114.33000183105469,116.54000091552734,115.81839752197266,153200,1.7026020701559135,0.03877881545959324
2020-01-31,115.91000366210938,116.38999938964844,115.13999938964844,115.51000213623047,114.7947769165039,300700,1.6809877455646987,0.03755278039756621
2020-02-03,115.61000061035156,117.54000091552734,115.51000213623047,117.23999786376953,116.5140609741211,271300,1.705917105116997,0.036651107480047074
2020-02-04,117.79000091552734,118.48999786376953,116.19999694824219,116.94999694824219,116.2258529663086,313700,1.7476373772891647,0.0370131906723414
2020-02-05,117.13999938964844,118.29000091552734,116.75,117.87000274658203,117.14016723632812,188100,1.7328062014490346,0.03542876104146916
2020-02-06,118.05000305175781,118.94999694824219,117.45999908447266,117.52999877929688,116.80226135253906,247800,1.7154627487576415,0.034136953302178016
2020-02-07,117.06999969482422,117.68000030517578,116.22000122070312,116.69999694824219,115.97740173339844,144500,1.6972153441658568,0.03300198553714992
2020-02-10,116.41999816894531,117.0999984741211,115.4800033569336,115.80000305175781,115.08297729492188,142600,1.6916996136674027,0.031038681605814505
2020-02-11,116.0199966430664,116.88999938964844,115.4000015258789,116.05000305175781,115.33143615722656,197600,1.6772923458175548,0.02985072348038832
2020-02-12,116.12999725341797,116.20999908447266,114.30000305175781,114.70999908447266,113.99972534179688,448200,1.6939140377387898,0.028905792654734506
2020-02-13,114.58000183105469,116.55000305175781,113.69000244140625,116.19999694824219,115.48049926757812,200400,1.7772059357825594,0.03279051446823701
2020-02-14,116.5999984741211,117.75,116.16999816894531,116.66999816894531,115.94759368896484,216800,1.7631199283019972,0.03145447825483167
2020-02-18,116.47000122070312,116.62999725341797,115.08000183105469,115.26000213623047,114.54632568359375,271300,1.7507539575583277,0.030091013432605795
2020-02-19,115.37000274658203,116.62000274658203,114.72000122070312,115.01000213623047,114.2978744506836,289200,1.761414498152655,0.028703122515585894
2020-02-20,114.61000061035156,115.66999816894531,113.73999786376953,114.93000030517578,114.2183609008789,378400,1.7734563415114497,0.027513031147243672
2020-02-21,111.5199966430664,114.6500015258789,109.16000366210938,111.9800033569336,111.28663635253906,720600,2.0589235059082323,0.04593832637935359
2020-02-24,110.5,111.20999908447266,109.16999816894531,109.20999908447266,108.53378295898438,447900,2.1125721974853784,0.04648906675062449
2020-02-25,109.22000122070312,109.56999969482422,106.70999908447266,106.94000244140625,106.27783966064453,641400,2.1659599412615345,0.04698182939530532
2020-02-26,104.0,106.55999755859375,102.7699966430664,104.68000030517578,104.03182983398438,504500,2.309106073909985,0.05385070819910141
2020-02-27,103.4000015258789,104.76000213623047,101.94999694824219,102.4000015258789,101.76595306396484,670500,2.3448845820584348,0.052559836766912
2020-02-28,99.7300033569336,102.20999908447266,99.31999969482422,101.06999969482422,100.44418334960938,690800,2.3973929569867383,0.052556160921297106
2020-03-02,101.62000274658203,103.76000213623047,100.80999755859375,103.58000183105469,102.93864440917969,331800,2.4368652156045942,0.05162159647105131
2020-03-03,103.79000091552734,105.72000122070312,102.19999694824219,102.76000213623047,102.12372589111328,353300,2.514232291094333,0.0534605592581004
2020-03-04,105.38999938964844,107.62999725341797,104.44000244140625,107.44000244140625,106.77474212646484,294500,2.682501064386702,0.061661145974833874
2020-03-05,105.33999633789062,105.80000305175781,102.63999938964844,103.9800033569336,103.33617401123047,273800,2.8337512063417813,0.06806035997342283
2020-03-06,101.61000061035156,107.41000366210938,101.33000183105469,107.30000305175781,106.63561248779297,624000,3.065626250964132,0.0797614088769177
2020-03-09,102.73999786376953,105.0,99.4800033569336,101.44999694824219,100.82183074951172,597100,3.4052243540969953,0.09832117275234238
2020-03-10,103.5999984741211,103.98999786376953,99.38999938964844,103.98999786376953,103.34609985351562,522300,3.490565362670145,0.09739401816811434
2020-03-11,101.66999816894531,101.66999816894531,97.91999816894531,99.08000183105469,98.46650695800781,705800,3.674810672109722,0.10359768183036167
2020-03-12,92.4800033569336,96.4000015258789,87.5,94.4000015258789,93.81549072265625,843100,4.239467183462934,0.1365304553677081
2020-03-13,98.08000183105469,99.44000244140625,91.12000274658203,96.38999938964844,95.79316711425781,596000,4.530933791417311,0.14759732340961307
2020-03-16,87.4000015258789,94.4800033569336,87.4000015258789,87.87999725341797,87.33585357666016,667400,4.849438368013899,0.1598049843515398
2020-03-17,89.94999694824219,96.94999694824219,89.4800033569336,96.44999694824219,95.85279083251953,595700,5.150907034214636,0.16992381876933962
2020-03-18,91.69000244140625,96.9800033569336,90.33999633789062,96.75,96.15093231201172,762000,5.257271318845231,0.16538385204514364
2020-03-19,96.48999786376953,101.22000122070312,93.58999633789062,98.87999725341797,98.26773834228516,354700,5.426752287700036,0.1656765032458337
2020-03-20,98.80999755859375,99.9800033569336,89.12999725341797,92.51000213623047,91.93718719482422,727300,5.814127560258292,0.18151212962529245
2020-03-23,92.05999755859375,93.23999786376953,79.83999633789062,83.93000030517578,83.41031646728516,698800,6.355975700659765,0.20725041610930534
2020-03-24,87.2699966430664,88.31999969482422,82.69000244140625,88.05999755859375,87.51473999023438,535600,6.304120097285351,0.19615078662824167
2020-03-25,89.0,93.66000366210938,86.22000122070312,90.18000030517578,89.62162017822266,576200,6.385254550436843,0.18793533423704534
2020-03-26,90.8499984741211,97.33999633789062,90.22000122070312,96.19999694824219,95.60433197021484,447000,6.440593227742414,0.17846414445622574
2020-03-27,94.54000091552734,95.83999633789062,92.0999984741211,94.0,93.41796875,482000,6.273407888198034,0.17765851553395104
2020-03-30,94.97000122070312,100.95999908447266,94.37000274658203,100.4800033569336,99.85784149169922,435400,6.322450116503364,0.16847163787476385
2020-03-31,100.5199966430664,102.75,97.44000244140625,99.54000091552734,98.92366027832031,531000,6.250132076652677,0.16160352373018697
2020-04-01,97.70999908447266,98.68000030517578,95.44000244140625,96.20999908447266,95.61427307128906,296500,6.096551105043278,0.1610304842929878
2020-04-02,95.80999755859375,97.13999938964844,94.12000274658203,96.1500015258789,95.55464935302734,455700,5.876797214902072,0.16522501328214623
2020-04-03,94.87999725341797,97.41999816894531,93.36000061035156,94.19000244140625,93.6067886352539,370300,5.747025810880048,0.16269261262070892
2020-04-06,97.06999969482422,101.18000030517578,97.06999969482422,100.76000213623047,100.1361083984375,503200,5.835809528943583,0.15741340586662506
2020-04-07,103.55000305175781,103.55000305175781,99.22000122070312,101.12000274658203,100.4938735961914,378000,5.728251836237233,0.15385228349803398
2020-04-08,102.6500015258789,105.29000091552734,100.63999938964844,104.11000061035156,103.46536254882812,328500,5.651233956925924,0.1483641117704108
2020-04-09,105.04000091552734,108.02999877929688,104.2300033569336,107.2699966430664,106.60579681396484,399300,5.527574257784451,0.1465995108683438
2020-04-13,106.98999786376953,107.43000030517578,102.30000305175781,102.3499984741211,101.71626281738281,234000,5.4991759003297025,0.1381565713388013
2020-04-14,104.55999755859375,105.37000274658203,103.36000061035156,104.0199966430664,103.37591552734375,239700,5.32209221262479,0.14093707965066635
2020-04-15,102.27999877929688,104.19000244140625,100.61000061035156,100.93000030517578,100.3050537109375,441400,5.197657185369783,0.139758361622405
2020-04-16,103.02999877929688,103.02999877929688,99.68000030517578,101.8499984741211,101.21935272216797,294000,5.065681563137734,0.13920245166595097
2020-04-17,103.86000061035156,105.0199966430664,102.4000015258789,102.94000244140625,102.30260467529297,256200,4.930275606409704,0.1389312734560995
2020-04-20,101.86000061035156,107.94000244140625,101.12999725341797,106.94000244140625,106.27783966064453,856400,5.064542005093888,0.13859806811524844
2020-04-21,105.8499984741211,106.98999786376953,104.12000274658203,106.12000274658203,105.46292114257812,475500,4.9077886559577175,0.1398948739024572
2020-04-22,106.98999786376953,107.04000091552734,104.12000274658203,106.30000305175781,105.64179992675781,436400,4.765803621171117,0.14004417110846742
2020-04-23,106.62000274658203,107.31999969482422,104.94999694824219,105.0199966430664,104.3697280883789,347600,4.594674987271897,0.1422644898792355
2020-04-24,105.41000366210938,105.41000366210938,103.08999633789062,104.12000274658203,103.47530364990234,377000,4.432198725625243,0.14370818786262252
2020-04-27,109.33000183105469,114.0999984741211,106.87999725341797,112.58000183105469,111.88291931152344,457700,4.8284699400476585,0.16174840404546487
2020-04-28,112.5999984741211,114.66000366210938,110.98999786376953,111.18000030517578,110.84603881835938,274600,4.745722501354243,0.1561054779488899
2020-04-29,112.55999755859375,113.62999725341797,109.81999969482422,110.08000183105469,109.74934387207031,236600,4.67888500544278,0.14972919351764516
2020-04-30,108.98999786376953,110.06999969482422,106.33999633789062,107.08000183105469,106.75835418701172,730600,4.611822183137157,0.14382445271678643
2020-05-01,110.55999755859375,110.55999755859375,104.70999908447266,106.13999938964844,105.82118225097656,506200,4.700263346778867,0.13986850349713806
2020-05-04,105.52999877929688,107.33000183105469,105.08000183105469,106.80999755859375,106.48916625976562,324300,4.525244536294662,0.14237923971049996
2020-05-05,106.77999877929688,107.62999725341797,105.4000015258789,105.55999755859375,105.242919921875,332500,4.361298192812119,0.14391974712278874
2020-05-06,106.7699966430664,107.05000305175781,104.76000213623047,104.86000061035156,104.5450210571289,234000,4.213348387291778,0.1442076084368996
2020-05-07,105.5199966430664,106.88999938964844,105.13999938964844,105.47000122070312,105.15319061279297,285200,4.0573948438635705,0.14504660379342157
2020-05-08,106.9800033569336,107.98999786376953,106.55999755859375,107.52999877929688,107.20700073242188,259700,3.9475806866637733,0.14253000046530556
2020-05-11,106.66000366210938,107.51000213623047,106.08000183105469,106.30999755859375,105.99066925048828,344000,3.7691818482050885,0.1450920603219755
2020-05-12,106.43000030517578,106.43000030517578,103.8499984741211,103.94999694824219,103.63775634765625,233300,3.6842404184086313,0.1407955867130099
2020-05-13,103.38999938964844,103.38999938964844,101.6500015258789,102.41999816894531,102.11235046386719,267100,3.5853657758339637,0.13780123356027116
2020-05-14,101.01000213623047,102.62000274658203,99.11000061035156,102.45999908447266,102.15222930908203,246200,3.579982658719428,0.12834279667129003
2020-05-15,101.47000122070312,101.69999694824219,100.05000305175781,101.5,101.19511413574219,476400,3.4964121854333863,0.12514477357234374
2020-05-18,104.06999969482422,105.1500015258789,102.94999694824219,104.1500015258789,103.837158203125,304500,3.5073828526080666,0.11698948025822493
2020-05-19,103.79000091552734,105.75,103.16000366210938,103.7300033569336,103.41841888427734,214700,3.4418552444139636,0.1133136322536448
2020-05-20,104.44999694824219,105.5199966430664,104.08000183105469,104.41000366210938,104.09638214111328,146200,3.323865104536739,0.11364766851247195
2020-05-21,104.44000244140625,105.70999908447266,104.44000244140625,105.08999633789062,104.77433013916016,233900,3.179302984381492,0.11585584362981301
2020-05-22,104.97000122070312,105.25,103.70999908447266,105.0999984741211,104.7843017578125,151200,3.062209979463339,0.11594421229326587
2020-05-26,107.33999633789062,110.19000244140625,106.77999877929688,109.55000305175781,109.22093963623047,332200,3.2070524071648974,0.11800837053671533
2020-05-27,111.06999969482422,112.6500015258789,110.3499984741211,112.55000305175781,112.21192932128906,290400,3.1994056976617684,0.11012539474860202
2020-05-28,113.33000183105469,113.33000183105469,110.94000244140625,111.5999984741211,111.26477813720703,233600,3.1415909613751016,0.10638891914417807
2020-05-29,111.0999984741211,111.52999877929688,109.70999908447266,111.38999938964844,111.05541229248047,215300,3.0521915633946257,0.10517538191819933
2020-06-01,111.27999877929688,111.87999725341797,110.5999984741211,111.41999816894531,111.08531951904297,277000,2.925606364530501,0.10670465455719401
2020-06-02,111.75,112.47000122070312,110.94000244140625,112.06999969482422,111.73336791992188,224900,2.825920108442385,0.10620334038083132
2020-06-03,112.69999694824219,114.0999984741211,112.69999694824219,113.27999877929688,112.93972778320312,196600,2.769068584931991,0.10267821060437148
2020-06-04,113.5,113.5,111.0199966430664,112.13999938964844,111.80315399169922,182500,2.7484210686463912,0.0968188752958878
2020-06-05,113.80000305175781,114.27999877929688,112.91000366210938,113.4000015258789,113.05937194824219,235500,2.7049623772893945,0.09300743358596701
2020-06-08,112.81999969482422,114.0,112.29000091552734,113.58000183105469,113.23883056640625,244700,2.633893570659627,0.09144038880338132
2020-06-09,112.77999877929688,113.44999694824219,111.91000366210938,112.47000122070312,112.13216400146484,292100,2.5650438991086046,0.08982676614249854
2020-06-10,113.0,113.0,110.81999969482422,111.63999938964844,111.30465698242188,366600,2.5375407852562604,0.08537507669320181
2020-06-11,110.0,110.61000061035156,104.20999908447266,104.25,103.93685913085938,376900,2.887002179536226,0.10423838509225637
2020-06-12,106.69000244140625,107.52999877929688,103.08000183105469,105.36000061035156,105.04352569580078,247300,2.9986446630152233,0.10476724926273785
2020-06-15,103.44000244140625,106.54000091552734,103.06999969482422,105.41000366210938,105.09337615966797,235900,3.0323129885643594,0.0996887547117663
2020-06-16,108.30000305175781,109.08999633789062,106.86000061035156,107.38999938964844,107.06742095947266,252600,3.078575823365566,0.09587261757529775
2020-06-17,108.19000244140625,108.6500015258789,106.37000274658203,106.91000366210938,106.5888671875,208800,3.021534605932088,0.09309894613659632
2020-06-18,106.27999877929688,107.97000122070312,105.97000122070312,106.98999786376953,106.66862487792969,217800,2.9485678483655104,0.09166093266730926
2020-06-19,107.20999908447266,107.98999786376953,106.0999984741211,107.5999984741211,107.27679443359375,303700,2.872955815600005,0.09051458267432329
2020-06-22,106.94000244140625,107.66999816894531,105.5,107.55000305175781,107.22694396972656,241900,2.8227445551246695,0.08763577394582416
2020-06-23,108.45999908447266,108.45999908447266,106.91999816894531,107.44000244140625,107.11727905273438,228300,2.731120009439146,0.08792068621294553
2020-06-24,106.58000183105469,107.5199966430664,105.8499984741211,105.94000244140625,105.62178039550781,433900,2.6553255922610153,0.08705452413903021
2020-06-25,105.41000366210938,107.62999725341797,103.77999877929688,107.5999984741211,107.27679443359375,263600,2.7406593695367354,0.08693161364879377
2020-06-26,107.12000274658203,108.69000244140625,106.16999816894531,107.72000122070312,107.39643096923828,924200,2.724898291174178,0.08184800398549116
2020-06-29,108.23999786376953,110.19000244140625,107.88999938964844,109.25,108.92183685302734,189300,2.706691357569103,0.07730221324403287
2020-06-30,109.12999725341797,112.27999877929688,109.12999725341797,111.9800033569336,111.64363861083984,421800,2.7383563695912314,0.07404241315675399
2020-07-01,111.91000366210938,112.66999816894531,110.94999694824219,112.4800033569336,112.14213562011719,247900,2.6656167160992235,0.07394935889498641
2020-07-02,113.44000244140625,115.01000213623047,113.44000244140625,114.97000122070312,114.6246566772461,271400,2.6559297206133414,0.06935919008005038
2020-07-06,115.98999786376953,116.66000366210938,114.18000030517578,115.26000213623047,114.91378784179688,330900,2.643363551779074,0.06530254570535161
2020-07-07,114.63999938964844,116.0,114.18000030517578,115.1500015258789,114.80411529541016,346500,2.5845518477108698,0.06483891415984108
2020-07-08,114.79000091552734,115.75,112.58999633789062,112.93000030517578,112.59078216552734,205900,2.6256555487393345,0.0631435417933142
2020-07-09,113.16000366210938,114.13999938964844,111.41000366210938,113.76000213623047,113.41828918457031,307200,2.633108418653601,0.05916563665909652
2020-07-10,114.16999816894531,115.16999816894531,112.4000015258789,114.94999694824219,114.6047134399414,244500,2.6428861489688016,0.05563792906310394
2020-07-13,114.95999908447266,116.2699966430664,113.2699966430664,113.43000030517578,113.08927917480469,289000,2.6683942811853156,0.05348580071691895
2020-07-14,113.76000213623047,116.5,113.69000244140625,116.30999755859375,115.96062469482422,193600,2.697080382159523,0.05171439359243953
2020-07-15,117.44000244140625,118.29000091552734,116.54000091552734,117.9000015258789,117.54585266113281,326900,2.645860594643385,0.051679064586989405
2020-07-16,118.04000091552734,118.48999786376953,116.80000305175781,117.23999786376953,116.88783264160156,252900,2.5775844673125516,0.052864569068692545
2020-07-17,118.0,119.70999908447266,117.33999633789062,119.4000015258789,119.04135131835938,249000,2.5698999496975925,0.04963742253628301
2020-07-20,119.4000015258789,119.75,118.2699966430664,119.29000091552734,118.93167877197266,183200,2.4920501930715924,0.05165258925697709
2020-07-21,119.58000183105469,119.87000274658203,117.66999816894531,118.18000030517578,117.82501220703125,394300,2.4711897919691017,0.049453147245942346
2020-07-22,118.25,118.9800033569336,117.41000366210938,118.5,118.14405059814453,414600,2.406819070744467,0.05051868824442036
2020-07-23,118.38999938964844,119.2300033569336,118.08999633789062,118.44000244140625,118.08423614501953,286700,2.316332495622931,0.05337353730707147
2020-07-24,119.0,119.79000091552734,118.37999725341797,118.8499984741211,118.49299621582031,244700,2.2515947218005343,0.05418526848673757
2020-07-27,118.83000183105469,120.44999694824219,118.5,119.8499984741211,119.48999786376953,281800,2.230052023689224,0.051853656317064185
2020-07-28,119.80999755859375,119.80999755859375,117.77999877929688,118.05000305175781,118.05000305175781,208600,2.2186197144845807,0.04896641723760555
2020-07-29,118.72000122070312,119.41000366210938,117.33000183105469,118.80999755859375,118.80999755859375,251200,2.208718437096731,0.046176050105480135
2020-07-30,117.75,118.91000366210938,116.69999694824219,117.91000366210938,117.91000366210938,359800,2.208810456866049,0.042884333652897136
2020-07-31,115.0,117.9000015258789,111.22000122070312,115.19999694824219,115.19999694824219,668100,2.5288955986189205,0.06268439137432387
2020-08-03,116.8499984741211,119.68000030517578,114.8499984741211,118.66000366210938,118.66000366210938,292900,2.6932603295071895,0.0699472727681771
2020-08-04,118.94999694824219,120.18000030517578,118.22000122070312,118.62000274658203,118.62000274658203,233100,2.6408845262904372,0.06869216780021818
2020-08-05,119.55999755859375,120.66999816894531,118.22000122070312,118.36000061035156,118.36000061035156,164700,2.627249699286991,0.06475950060044876
2020-08-06,118.81999969482422,120.11000061035156,116.68000030517578,117.66000366210938,117.66000366210938,246500,2.684589028279047,0.06422948834270642
2020-08-07,117.06999969482422,119.37000274658203,116.77999877929688,119.25,119.25,202300,2.677832952493769,0.060124244588604374
2020-08-10,119.58000183105469,119.58000183105469,116.9000015258789,117.0,117.0,204700,2.6779877633996274,0.055840713611265365
2020-08-11,118.0199966430664,119.3499984741211,116.52999877929688,116.73999786376953,116.73999786376953,214100,2.688131472787098,0.05257664188099432
2020-08-12,116.91999816894531,118.56999969482422,116.75,118.08999633789062,118.08999633789062,171800,2.62683649837764,0.05319937991874174
